0	0	0	0	
1	0	1	0	
2	0	2	0	
3	0	3	0	
4	0	4	0	
5	0	5	0	
6	0	6	0	
7	0	7	0	
8	0	8	0	
9	0	9	0	
10	0	10	0	
11	0	11	0	
12	135.727	12	-1.09091	
13	161.182	13	3.27273	
14	166.182	14	7.72727	
15	172.545	15	19.9091	
16	176.545	16	19.8182	
17	179.636	17	22.5455	
18	190.091	18	32.1818	
19	198.636	19	15.3636	
20	208.636	20	11.5455	
21	233.545	21	10.0909	
22	278	22	5.72727	
23	331.455	23	-1.36364	
24	403.909	24	1.45455	
25	512	25	1.27273	
26	617.909	26	-0.909091	
27	714.909	27	11.5455	
28	744.545	28	26.0909	
29	684.545	29	19.6364	
30	573.273	30	16.6364	
31	461.273	31	14.7273	
32	367.545	32	10.6364	
33	316	33	17.7273	
34	282.273	34	24.5455	
35	243.364	35	16.7273	
36	219.727	36	18.9091	
37	207.636	37	17.9091	
38	195.727	38	10.9091	
39	184.636	39	-11.9091	
40	177	40	-13.7273	
41	179.091	41	4.81818	
42	182.091	42	12.7273	
43	176.636	43	14.7273	
44	175	44	9.09091	
45	175.727	45	11.3636	
46	194.182	46	11.9091	
47	215.636	47	11.5455	
48	224.273	48	18.2727	
49	192.364	49	11.9091	
50	175	50	0.363636	
51	152.818	51	-3.81818	
52	147	52	8.18182	
53	142.273	53	5.90909	
54	138.818	54	22.9091	
55	129.182	55	27.7273	
56	121.182	56	17.6364	
57	108.091	57	13	
58	104.364	58	11.1818	
59	102.909	59	3.81818	
60	95.7273	60	10.9091	
61	98.3636	61	20.6364	
62	109	62	17.2727	
63	99.9091	63	15	
64	96.6364	64	7.18182	
65	100.909	65	2.36364	
66	105.727	66	4.90909	
67	105.364	67	-1.90909	
68	102.636	68	1.54545	
69	102.273	69	4.27273	
70	95.4545	70	4.72727	
71	96.6364	71	5.36364	
72	99.0909	72	-0.0909091	
73	95.7273	73	-4.36364	
74	88	74	1.54545	
75	82.3636	75	15.8182	
76	82.8182	76	8.90909	
77	76.1818	77	17.2727	
78	80.7273	78	-3.45455	
79	88.0909	79	0.181818	
80	85	80	-3.36364	
81	82.1818	81	7.54545	
82	80	82	17.1818	
83	74.4545	83	16.6364	
84	74.8182	84	29.5455	
85	74.8182	85	34.2727	
86	76.2727	86	44.7273	
87	76.8182	87	84.8182	
88	79.6364	88	159.727	
89	80.2727	89	241.364	
90	78.1818	90	325.818	
91	68	91	386.455	
92	66.9091	92	402.364	
93	74.1818	93	394.636	
94	79.6364	94	389.909	
95	82.8182	95	394.091	
96	82.8182	96	379.636	
97	95.4545	97	367.818	
98	104.818	98	375.364	
99	105.818	99	358.455	
100	108.545	100	351.909	
101	117.182	101	346.273	
102	119.545	102	331	
103	122.364	103	329.909	
104	113.273	104	324.455	
105	104.818	105	325.455	
106	104.545	106	312.455	
107	104.455	107	296	
108	104.636	108	310.455	
109	107.818	109	301.364	
110	102.727	110	290.091	
111	94	111	260.364	
112	88.0909	112	262.273	
113	87.6364	113	264.545	
114	83.9091	114	260.273	
115	75.0909	115	265.909	
116	71.4545	116	270.364	
117	70.2727	117	268.909	
118	69	118	257.182	
119	68.7273	119	256.091	
120	56.0909	120	258.455	
121	53.5455	121	254.182	
122	55.1818	122	256	
123	63.7273	123	257.455	
124	54.5455	124	263.545	
125	49.3636	125	248.909	
126	51.4545	126	242.364	
127	63.4545	127	238.818	
128	49.2727	128	240.273	
129	47.1818	129	221.273	
130	58.8182	130	229.364	
131	60.9091	131	214.273	
132	51.4545	132	214.636	
133	44.6364	133	217	
134	33.4545	134	206.909	
135	33.1818	135	222.909	
136	42.3636	136	232.636	
137	39.5455	137	237.545	
138	36.9091	138	230.091	
139	41.7273	139	219.727	
140	38.8182	140	206.545	
141	35.3636	141	201.182	
142	36.9091	142	220	
143	48.5455	143	212.364	
144	45.6364	144	210.727	
145	44.5455	145	211.091	
146	49.5455	146	216.091	
147	33.6364	147	232.909	
148	39.5455	148	195.727	
149	47.9091	149	188.273	
150	68.2727	150	188.545	
151	52.1818	151	193.364	
152	53.0909	152	207.818	
153	46.9091	153	203.091	
154	40.3636	154	194.455	
155	31.8182	155	207.818	
156	34.2727	156	201.636	
157	32.7273	157	192.545	
158	32.1818	158	199.636	
159	33.2727	159	212.909	
160	30.8182	160	213.727	
161	29.8182	161	206.091	
162	36.9091	162	200.909	
163	37.7273	163	194.273	
164	35.6364	164	209.091	
165	30.7273	165	208.818	
166	44.2727	166	212	
167	36.1818	167	210.455	
168	34.7273	168	189.818	
169	46.1818	169	201.545	
170	39	170	188.091	
171	41.6364	171	187.545	
172	45.0909	172	199.273	
173	40.5455	173	189.091	
174	38	174	205.455	
175	34.3636	175	202.727	
176	37.0909	176	203.455	
177	38.1818	177	195.455	
178	26.4545	178	203.182	
179	25.9091	179	211.273	
180	34.8182	180	220.091	
181	34.6364	181	205.545	
182	37.7273	182	189	
183	38	183	191.273	
184	43.5455	184	193.545	
185	46	185	180.909	
186	33.2727	186	191.727	
187	26.1818	187	208.455	
188	37.2727	188	216.455	
189	32.9091	189	212	
190	36.9091	190	194.273	
191	30.0909	191	191.273	
192	31.4545	192	201.909	
193	26.8182	193	188.182	
194	27	194	206.364	
195	31.0909	195	197.091	
196	24.7273	196	192.636	
197	29.6364	197	187.455	
198	38.9091	198	183.545	
199	33.2727	199	191.364	
200	28.9091	200	188.182	
201	31.7273	201	198.636	
202	35.8182	202	208.091	
203	30.8182	203	202.636	
204	30.3636	204	210.636	
205	35.6364	205	213.909	
206	32.8182	206	216.818	
207	25.1818	207	213.636	
208	29.5455	208	187.091	
209	29.6364	209	181.364	
210	34.1818	210	201	
211	32.7273	211	216.091	
212	44.7273	212	203.727	
213	37.4545	213	187.182	
214	40.3636	214	188.182	
215	28.5455	215	178.727	
216	38	216	180	
217	44.0909	217	201.727	
218	43.4545	218	209	
219	42.6364	219	224.091	
220	31.9091	220	216.455	
221	23.7273	221	204.273	
222	23.8182	222	205.455	
223	24.0909	223	211.636	
224	28.5455	224	205.091	
225	32.7273	225	206.636	
226	36.0909	226	206.273	
227	40.8182	227	205.364	
228	39	228	195	
229	41.9091	229	191	
230	36.9091	230	197.909	
231	38.7273	231	203.545	
232	51.0909	232	194.182	
233	42	233	206.727	
234	32.6364	234	237	
235	44.9091	235	249.636	
236	36.7273	236	248.455	
237	41.5455	237	230.182	
238	50.6364	238	225.273	
239	44.4545	239	239.364	
240	34.2727	240	236.273	
241	30.3636	241	221.273	
242	30.7273	242	225.909	
243	24.3636	243	220.727	
244	28.9091	244	209.091	
245	43.2727	245	224	
246	41.3636	246	232.182	
247	38.6364	247	228.182	
248	37.5455	248	225.545	
249	32.7273	249	222.182	
250	32.8182	250	227.364	
251	37.1818	251	238	
252	45.3636	252	219.818	
253	34.6364	253	216.636	
254	38.1818	254	249.182	
255	43.2727	255	251	
256	39.3636	256	240.182	
257	35.7273	257	261.455	
258	45.4545	258	275.545	
259	31.3636	259	247.182	
260	40.4545	260	232	
261	43.4545	261	213.273	
262	34.0909	262	224.455	
263	29.2727	263	238.455	
264	30.4545	264	244.545	
265	32.3636	265	258.818	
266	31.4545	266	256.636	
267	37.5455	267	242.727	
268	42.4545	268	231.636	
269	50.6364	269	230.727	
270	49.4545	270	249.818	
271	45.0909	271	279.818	
272	48.6364	272	286.818	
273	43	273	274.364	
274	39.5455	274	243.818	
275	43.9091	275	257.727	
276	31.0909	276	263	
277	38.8182	277	281.545	
278	49.0909	278	298.909	
279	40.1818	279	284.545	
280	38.8182	280	277.273	
281	44.1818	281	267.545	
282	40.6364	282	260.455	
283	42.3636	283	262.182	
284	34.4545	284	264.818	
285	33.1818	285	264.455	
286	37.8182	286	254.182	
287	37.8182	287	264	
288	32.2727	288	292.182	
289	28.4545	289	296.909	
290	41.1818	290	274.273	
291	47.2727	291	271.818	
292	43.0909	292	270.909	
293	40.7273	293	276.727	
294	47.1818	294	283.455	
295	41.0909	295	281.545	
296	36.6364	296	282.364	
297	39.3636	297	282.091	
298	51.2727	298	275.091	
299	54.3636	299	297.909	
300	44.7273	300	297.364	
301	48.0909	301	294	
302	50.5455	302	295	
303	50.1818	303	288.727	
304	39.7273	304	288.364	
305	40.4545	305	300.636	
306	48.4545	306	291.091	
307	43.9091	307	295.727	
308	47.4545	308	302.545	
309	47.8182	309	303.182	
310	48.8182	310	309.364	
311	48.2727	311	291.364	
312	51	312	274	
313	62.6364	313	291.364	
314	59	314	300.636	
315	40	315	306.091	
316	40.9091	316	292.909	
317	48.5455	317	308.273	
318	45.1818	318	312.909	
319	32.2727	319	315.091	
320	43.5455	320	313.909	
321	55	321	324	
322	50.6364	322	330.818	
323	43.5455	323	307	
324	51.7273	324	309.818	
325	57.2727	325	319	
326	60.6364	326	312.909	
327	51.7273	327	320.364	
328	56.1818	328	341.909	
329	56.1818	329	345.182	
330	49.6364	330	342.273	
331	46.4545	331	341	
332	51.7273	332	337.818	
333	58.0909	333	344.182	
334	69.2727	334	338	
335	67.6364	335	324.091	
336	59.5455	336	331.818	
337	52.1818	337	333.636	
338	49.0909	338	335.909	
339	49	339	326.909	
340	49.5455	340	318.182	
341	58	341	329.273	
342	60	342	340.727	
343	62	343	349.455	
344	61.9091	344	354.364	
345	55.5455	345	348.909	
346	64.6364	346	338.182	
347	69.5455	347	349	
348	64.8182	348	346.273	
349	69.4545	349	333.909	
350	68.0909	350	335.455	
351	59.1818	351	351	
352	55.1818	352	352.545	
353	56.3636	353	332.636	
354	59.7273	354	341.727	
355	61.7273	355	349.364	
356	64.2727	356	356.636	
357	65.3636	357	362.636	
358	63.7273	358	357.455	
359	59	359	339.545	
360	59.9091	360	355.273	
361	68.1818	361	358.273	
362	59.6364	362	373.727	
363	51.4545	363	371.727	
364	49.0909	364	337.909	
365	60.8182	365	335.818	
366	66.9091	366	348.545	
367	56.5455	367	358.364	
368	55	368	378.545	
369	58.0909	369	368.273	
370	61.3636	370	338.182	
371	67.3636	371	338.545	
372	63.2727	372	355.182	
373	66.8182	373	352.545	
374	72	374	355.727	
375	66.8182	375	375.364	
376	66.5455	376	375	
377	58.2727	377	352.818	
378	47.5455	378	347.182	
379	49.7273	379	365.364	
380	56.9091	380	355.727	
381	64.2727	381	369.636	
382	55.2727	382	373.636	
383	66.2727	383	350.273	
384	67.1818	384	325.091	
385	67.0909	385	359.455	
386	62	386	374.818	
387	58.5455	387	379	
388	58.1818	388	373.545	
389	60.5455	389	383.455	
390	61.5455	390	387.182	
391	53	391	386.636	
392	57.1818	392	383.364	
393	70.8182	393	383.182	
394	69.3636	394	369.182	
395	66.8182	395	381.182	
396	71.0909	396	397	
397	67.5455	397	392	
398	56.1818	398	383	
399	53.1818	399	379.455	
400	71.4545	400	379.273	
401	68.5455	401	375.364	
402	59.9091	402	370.636	
403	70.0909	403	374.182	
404	64.9091	404	359	
405	72.0909	405	362.909	
406	70.1818	406	388.455	
407	68.7273	407	399.091	
408	67.1818	408	377.455	
409	66	409	360.455	
410	68.9091	410	361.636	
411	66.3636	411	378.727	
412	59.3636	412	381.545	
413	55.7273	413	367.364	
414	57.2727	414	371.818	
415	61.8182	415	387.455	
416	71.5455	416	389.273	
417	77.9091	417	370.909	
418	73.6364	418	368.636	
419	60.0909	419	390.364	
420	61.7273	420	388.636	
421	66.8182	421	416.545	
422	77.8182	422	413	
423	63.8182	423	385.091	
424	68	424	362.364	
425	75.4545	425	360.455	
426	92.0909	426	389.455	
427	72.3636	427	381	
428	70.8182	428	351.636	
429	70.4545	429	378.636	
430	76.4545	430	400	
431	73.6364	431	413.455	
432	68.0909	432	412	
433	65	433	395.182	
434	71	434	391.364	
435	78.3636	435	369	
436	79	436	380.909	
437	76.8182	437	402.727	
438	79.9091	438	403.545	
439	80	439	395.818	
440	70.5455	440	375.909	
441	70.9091	441	386.091	
442	74.8182	442	382.273	
443	71.9091	443	401.818	
444	76.1818	444	400	
445	79.6364	445	379.909	
446	70.1818	446	366.545	
447	70.9091	447	414.545	
448	55.4545	448	429.091	
449	59.6364	449	431.455	
450	73.7273	450	426.545	
451	73.8182	451	418	
452	77.6364	452	414.909	
453	69	453	435.636	
454	69.7273	454	430.727	
455	68.6364	455	410.636	
456	73.7273	456	423.818	
457	76	457	420.364	
458	82.8182	458	430.909	
459	83.0909	459	420.182	
460	73.6364	460	425	
461	69.8182	461	427.636	
462	73.0909	462	424.909	
463	73.9091	463	432.727	
464	72.8182	464	438.455	
465	80.0909	465	433.818	
466	88	466	425.091	
467	87.3636	467	436	
468	82.4545	468	444.273	
469	81.3636	469	439	
470	74	470	430.364	
471	83.8182	471	432.091	
472	69.4545	472	430.091	
473	72.3636	473	395.182	
474	88.8182	474	432.727	
475	81.8182	475	417.818	
476	81	476	425.636	
477	84	477	452.091	
478	89.0909	478	445.545	
479	94.0909	479	455.364	
480	89.5455	480	467.091	
481	80.0909	481	463.727	
482	69.9091	482	450.455	
483	69.4545	483	449.636	
484	69.4545	484	453.818	
485	78.2727	485	465.273	
486	76.1818	486	463	
487	79.6364	487	449.545	
488	85	488	443.364	
489	96.9091	489	442.182	
490	94.9091	490	439.091	
491	84.2727	491	458.818	
492	75.8182	492	472.091	
493	81.5455	493	473.455	
494	85.1818	494	481.818	
495	82.9091	495	474.818	
496	84.1818	496	475.636	
497	81.2727	497	467.455	
498	86.7273	498	442.273	
499	75.8182	499	444.091	
500	72.7273	500	465.636	
501	75.7273	501	484.818	
502	81.6364	502	496.727	
503	87.3636	503	507.455	
504	87.8182	504	496.182	
505	72.7273	505	468.545	
506	76.2727	506	499	
507	79.8182	507	517.091	
508	67	508	519.455	
509	80.2727	509	513.182	
510	83.7273	510	486.364	
511	100.818	511	494.545	
512	101.727	512	496.364	
513	87.3636	513	506.091	
514	76	514	509.727	
515	87	515	495.727	
516	107.273	516	494.182	
517	88.1818	517	514.182	
518	89.8182	518	536.455	
519	87.3636	519	536.818	
520	89.2727	520	527.909	
521	97.6364	521	522	
522	97.5455	522	513.727	
523	100.818	523	525.909	
524	101.545	524	533.091	
525	99.2727	525	529.909	
526	94.1818	526	533.818	
527	91.6364	527	563.091	
528	91.7273	528	571.182	
529	93.4545	529	566.727	
530	97.2727	530	566.091	
531	98.8182	531	555.545	
532	101.455	532	555.909	
533	100.364	533	559.909	
534	103.364	534	565.455	
535	112	535	588.727	
536	99.1818	536	604.091	
537	93.6364	537	596.727	
538	102.182	538	576.091	
539	104.273	539	588.091	
540	101.727	540	601.545	
541	95.4545	541	627.364	
542	91.8182	542	639.727	
543	100.818	543	629.455	
544	95.8182	544	610.091	
545	82.4545	545	600.455	
546	105.364	546	629.364	
547	115.636	547	646.636	
548	103.636	548	647.455	
549	96.2727	549	626.545	
550	100.455	550	617.636	
551	107.364	551	621.545	
552	109.727	552	646.909	
553	100.909	553	643.636	
554	92.2727	554	653.455	
555	111.091	555	643.364	
556	103.727	556	666.636	
557	108.727	557	665.818	
558	108.364	558	661.727	
559	107.455	559	680.273	
560	100.909	560	686.818	
561	100.182	561	687.909	
562	107.091	562	677.273	
563	112	563	700.909	
564	104.182	564	698.364	
565	112.364	565	711.545	
566	111.364	566	714.818	
567	118.545	567	731.909	
568	122	568	736.818	
569	117.273	569	735.182	
570	111	570	740	
571	120	571	738.455	
572	127.455	572	736.273	
573	124.364	573	753.182	
574	117.727	574	775.091	
575	108.091	575	776.182	
576	99.6364	576	762.909	
577	105.636	577	777.273	
578	104	578	800.182	
579	107.455	579	790.545	
580	122.273	580	783.727	
581	126.182	581	797.455	
582	117.364	582	806.818	
583	110.818	583	808.455	
584	112.818	584	814	
585	123.182	585	826.545	
586	128.727	586	845.182	
587	120.818	587	848.455	
588	114	588	839.091	
589	112	589	849.727	
590	118.636	590	860.455	
591	131.909	591	867.545	
592	129.909	592	889.727	
593	130.091	593	886.182	
594	131.727	594	889.909	
595	141.455	595	910.455	
596	143.455	596	951.545	
597	140.182	597	968.636	
598	152	598	958.909	
599	162.636	599	955.818	
600	153	600	963.182	
601	150.364	601	997.182	
602	161.727	602	1017.64	
603	158.818	603	1020.27	
604	150	604	1009.18	
605	138.727	605	1001.91	
606	146.727	606	1034.91	
607	145.091	607	1064	
608	151.818	608	1068.64	
609	155.273	609	1070.09	
610	151.182	610	1062.82	
611	150.727	611	1084.91	
612	154.273	612	1078.36	
613	149.364	613	1102.82	
614	145.182	614	1124.64	
615	155.818	615	1124.64	
616	149.727	616	1136.18	
617	150.091	617	1142.91	
618	149.818	618	1143.82	
619	144.455	619	1165.09	
620	161.091	620	1206.73	
621	180.273	621	1211.45	
622	161.182	622	1224.55	
623	168.818	623	1234.91	
624	180.636	624	1229.09	
625	185.727	625	1207.45	
626	174.273	626	1240.55	
627	174.818	627	1251.55	
628	173.818	628	1243.36	
629	179.818	629	1250.09	
630	182.455	630	1284	
631	170.545	631	1313.73	
632	178.455	632	1302.73	
633	186.364	633	1291.18	
634	185.182	634	1328.27	
635	187.182	635	1332.45	
636	186.182	636	1331.45	
637	187.727	637	1329.45	
638	195.545	638	1349.45	
639	191.364	639	1399.27	
640	197.273	640	1414.27	
641	195.909	641	1394.36	
642	204	642	1407.36	
643	206.818	643	1424.36	
644	207.455	644	1430.91	
645	206.545	645	1442.55	
646	223.364	646	1440.82	
647	226	647	1447.91	
648	215.727	648	1450.27	
649	209.455	649	1460.91	
650	209.727	650	1485.73	
651	221.364	651	1487.91	
652	241	652	1503.36	
653	251.091	653	1457.36	
654	253.091	654	1430.45	
655	253.091	655	1474	
656	267.182	656	1523.91	
657	265.636	657	1530.64	
658	260.727	658	1521.45	
659	257.091	659	1501.18	
660	256.636	660	1504.55	
661	265.636	661	1498.18	
662	275.273	662	1527.45	
663	284.636	663	1546.45	
664	293.182	664	1542.27	
665	312	665	1527.36	
666	320.818	666	1509.36	
667	318.545	667	1504.64	
668	311.727	668	1531.45	
669	337.273	669	1538.73	
670	350.091	670	1520.91	
671	326.364	671	1513	
672	343.091	672	1482	
673	357.455	673	1486.18	
674	361.273	674	1513	
675	376.182	675	1526.09	
676	375.818	676	1515.73	
677	381.364	677	1487.55	
678	386.727	678	1482.91	
679	396.182	679	1485.64	
680	410.545	680	1482.09	
681	430.091	681	1462	
682	465.545	682	1453.55	
683	473	683	1445.64	
684	477.273	684	1421.36	
685	484.818	685	1403	
686	505.818	686	1406.82	
687	539.091	687	1404.45	
688	561.455	688	1389	
689	567.909	689	1368.73	
690	570.818	690	1381.91	
691	608.455	691	1396.64	
692	651.909	692	1408.09	
693	684.455	693	1397.55	
694	706.364	694	1384.09	
695	741.545	695	1350.27	
696	766.455	696	1316.55	
697	804.909	697	1296.64	
698	841.727	698	1275.45	
699	870.364	699	1260.36	
700	893.091	700	1253.91	
701	954.273	701	1257	
702	994.545	702	1271.91	
703	1046.64	703	1262.45	
704	1110.91	704	1228.82	
705	1142.36	705	1236.91	
706	1170.45	706	1227	
707	1191.91	707	1244.36	
708	1177.64	708	1217.27	
709	1185.45	709	1206.09	
710	1148.09	710	1210.36	
711	1123.18	711	1176.36	
712	1070.82	712	1151.73	
713	1022.27	713	1150.82	
714	984.636	714	1175.91	
715	935.091	715	1188.73	
716	840.727	716	1180	
717	785.545	717	1149.27	
718	741.636	718	1121.64	
719	697.273	719	1137.18	
720	652.091	720	1123.73	
721	631.455	721	1097.91	
722	599.091	722	1087.55	
723	562.182	723	1110.82	
724	540.636	724	1100.09	
725	520.727	725	1063.91	
726	493	726	1089.45	
727	463.182	727	1053.91	
728	460	728	1026.45	
729	458.727	729	1031.82	
730	426.909	730	1023.91	
731	410.727	731	1028.18	
732	396	732	1000.91	
733	382.909	733	991.273	
734	378.909	734	1017.64	
735	379	735	995.091	
736	360.182	736	977.182	
737	344.182	737	983.364	
738	335	738	968.909	
739	324.455	739	975.545	
740	312	740	967.455	
741	296.818	741	945.091	
742	297.636	742	922.545	
743	296.091	743	926.636	
744	297.182	744	920.364	
745	281.727	745	896.182	
746	277.455	746	903.364	
747	282.636	747	899.273	
748	267.727	748	904.636	
749	243.636	749	879.909	
750	235.455	750	858.545	
751	238	751	886.545	
752	231.909	752	915	
753	234.545	753	904.545	
754	229.364	754	881.545	
755	220.636	755	867.273	
756	228.455	756	857.364	
757	234.182	757	837.182	
758	225.818	758	817.545	
759	221.727	759	827.545	
760	216.545	760	847.636	
761	200.364	761	851.455	
762	196.455	762	841.182	
763	202.091	763	801.909	
764	198.636	764	784.909	
765	205.455	765	789.364	
766	191.182	766	786.727	
767	186.182	767	799.818	
768	190.545	768	790.727	
769	188.364	769	788.091	
770	185.727	770	774.091	
771	194.364	771	768.727	
772	191.091	772	766.273	
773	192	773	736.273	
774	182.273	774	719.545	
775	181.909	775	708.273	
776	168.636	776	736.273	
777	165.909	777	729.545	
778	183.091	778	719	
779	176.455	779	714.273	
780	181.091	780	735.273	
781	179.818	781	730.909	
782	178.273	782	724.455	
783	163.182	783	728.364	
784	154.545	784	713.182	
785	153.182	785	712	
786	163.909	786	716.636	
787	167.818	787	706.182	
788	160.818	788	688.091	
789	161.818	789	678.909	
790	151.818	790	662.727	
791	152.091	791	647.818	
792	161.909	792	660.636	
793	162.182	793	672.091	
794	150.273	794	664.909	
795	148.364	795	673.909	
796	153.636	796	687.636	
797	164.273	797	686.818	
798	170.545	798	686.818	
799	162.455	799	679.455	
800	153	800	667.182	
801	151.182	801	674.273	
802	153.818	802	670.273	
803	149.182	803	655.545	
804	145.182	804	640.727	
805	130	805	649.273	
806	137	806	635.273	
807	141.091	807	644.636	
808	140.636	808	638.727	
809	140	809	626.545	
810	136.364	810	634.273	
811	141.727	811	655.636	
812	140	812	607.818	
813	142.818	813	589.455	
814	136.636	814	605.364	
815	130.727	815	613.182	
816	130.182	816	603.727	
817	127.909	817	622.636	
818	122.545	818	605.091	
819	129.091	819	618.273	
820	142.909	820	623.182	
821	137.636	821	616.182	
822	132.818	822	609.818	
823	128	823	608.545	
824	113.182	824	592.091	
825	115.182	825	588	
826	122.273	826	593.091	
827	119	827	602.545	
828	119	828	599.909	
829	123.545	829	579.273	
830	126.727	830	564.909	
831	119.091	831	552.182	
832	109.909	832	547.091	
833	113.364	833	551.182	
834	122.545	834	554.636	
835	119.091	835	560.545	
836	120.364	836	570.727	
837	110.727	837	573.909	
838	96.5455	838	571.727	
839	103.636	839	576.545	
840	107.545	840	551.818	
841	117.091	841	547.182	
842	124.455	842	567.545	
843	121.636	843	563.455	
844	110.545	844	541.636	
845	110.818	845	544.364	
846	103.091	846	552.727	
847	105.636	847	551.727	
848	104	848	550.636	
849	103	849	561.545	
850	112.182	850	570.273	
851	112.818	851	584.545	
852	110	852	571	
853	113	853	542.091	
854	114.636	854	538.545	
855	115.455	855	545.091	
856	108.545	856	558	
857	95.7273	857	552.636	
858	100.364	858	533.545	
859	105.909	859	548.273	
860	109.727	860	535.909	
861	104.182	861	537.909	
862	113.364	862	532.182	
863	112.273	863	529.091	
864	99.7273	864	528.091	
865	99.7273	865	550.182	
866	99.9091	866	541.636	
867	104.909	867	503.182	
868	99.6364	868	502.545	
869	94	869	498.636	
870	106.818	870	530.273	
871	119.364	871	519.727	
872	118.091	872	510.818	
873	115.455	873	508.909	
874	102.909	874	510.636	
875	99.4545	875	497.091	
876	103.182	876	495.273	
877	101.091	877	521.545	
878	94.5455	878	541.273	
879	88.5455	879	526.636	
880	87.4545	880	513.909	
881	88	881	503.273	
882	98.9091	882	506.909	
883	99.8182	883	522	
884	88.7273	884	501.909	
885	96.7273	885	502.636	
886	101.545	886	476.545	
887	110.091	887	466.091	
888	99.4545	888	465.727	
889	97.1818	889	475	
890	92	890	478.727	
891	92.7273	891	460.364	
892	97.3636	892	491.909	
893	101	893	491	
894	98.2727	894	481.909	
895	91.0909	895	481.182	
896	85.4545	896	497.636	
897	82.6364	897	507.091	
898	82.9091	898	500.182	
899	88.6364	899	488.182	
900	91.1818	900	476.364	
901	86.2727	901	483.909	
902	85	902	491.909	
903	78.8182	903	495.455	
904	91.1818	904	505.182	
905	96.2727	905	497.909	
906	88.0909	906	480	
907	85	907	464.182	
908	85.4545	908	473.545	
909	88.2727	909	453.364	
910	90.8182	910	461.364	
911	89.5455	911	477.909	
912	103	912	474.364	
913	100.455	913	485.545	
914	92.5455	914	488.455	
915	93.6364	915	467.909	
916	92.8182	916	454	
917	86.1818	917	455.182	
918	89.7273	918	457.273	
919	92.8182	919	451.909	
920	86.9091	920	453.273	
921	86.5455	921	466	
922	84	922	462.273	
923	80.7273	923	461.273	
924	84.7273	924	465.273	
925	79.5455	925	450.727	
926	92.2727	926	458.909	
927	90.8182	927	456.545	
928	97.8182	928	458.545	
929	90.7273	929	456.545	
930	85.1818	930	470.727	
931	81.8182	931	465.091	
932	78.3636	932	466.636	
933	78.5455	933	481.364	
934	79.2727	934	470.364	
935	85.0909	935	453.636	
936	79.5455	936	455	
937	78.6364	937	461.273	
938	89.5455	938	462.909	
939	92.4545	939	456.909	
940	88	940	446.727	
941	82.3636	941	446.545	
942	77.1818	942	459.455	
943	87.7273	943	466.091	
944	88.8182	944	451.273	
945	83.6364	945	451.091	
946	93.5455	946	476.545	
947	71	947	472.455	
948	91.0909	948	441.455	
949	89.0909	949	447.818	
950	90	950	436.545	
951	89.2727	951	465.273	
952	91.8182	952	450.727	
953	91	953	452.273	
954	81.7273	954	456.636	
955	69.2727	955	450.364	
956	62.4545	956	437.636	
957	69.6364	957	424.909	
958	81.5455	958	416.182	
959	82.6364	959	427.636	
960	81.9091	960	445.909	
961	76.8182	961	446.818	
962	81.3636	962	432.727	
963	83.8182	963	429.727	
964	79.4545	964	431.545	
965	82.2727	965	440.455	
966	88.3636	966	439.545	
967	91.1818	967	430.091	
968	87.1818	968	422.545	
969	87.6364	969	434.364	
970	81.5455	970	432.273	
971	68.0909	971	428	
972	69	972	429.182	
973	75.2727	973	428.727	
974	77.5455	974	418.364	
975	79.6364	975	406.727	
976	79.9091	976	417.091	
977	76.9091	977	441.273	
978	79.5455	978	434.273	
979	80.2727	979	426.636	
980	82	980	429.909	
981	85.2727	981	429.182	
982	87.1818	982	401.182	
983	79.0909	983	406.818	
984	84.4545	984	416	
985	81.5455	985	424.182	
986	74.5455	986	402.182	
987	76.5455	987	396.545	
988	78.8182	988	402.455	
989	78.4545	989	415.273	
990	77.8182	990	411.818	
991	80.6364	991	418.818	
992	79.6364	992	431.727	
993	75.1818	993	412.909	
994	76.1818	994	411	
995	77	995	409.455	
996	73.8182	996	402.818	
997	82.4545	997	404.364	
998	84.9091	998	412.727	
999	82.4545	999	417.636	
1000	73	1000	402.636	
1001	74.2727	1001	411.909	
1002	69	1002	430.455	
1003	69.8182	1003	426.273	
1004	69.0909	1004	426	
1005	74.3636	1005	418.636	
1006	79.2727	1006	411.545	
1007	78.6364	1007	408.636	
1008	75.5455	1008	410.909	
1009	71.3636	1009	416.818	
1010	72.7273	1010	422.091	
1011	75.7273	1011	433.273	
1012	71.7273	1012	438.636	
1013	69.6364	1013	420.818	
1014	66	1014	408.455	
1015	69.5455	1015	408.273	
1016	77.1818	1016	417.273	
1017	70.8182	1017	413.727	
1018	11.1818	1018	66.7273	
1019	0	1019	0	
1020	0	1020	0	
1021	0	1021	0	
1022	0	1022	0	
1023	0	1023	0	
