0	100	
1	100	
2	100	
3	100	
4	100	
5	100	
6	100	
7	100	
8	100	
9	100	
10	100	
11	100	
12	98	
13	97	
14	100	
15	94	
16	93	
17	96	
18	96	
19	102	
20	103	
21	101	
22	101	
23	93	
24	95	
25	101	
26	101	
27	99	
28	98	
29	96	
30	98	
31	101	
32	104	
33	93	
34	102	
35	103	
36	100	
37	101	
38	105	
39	99	
40	98	
41	99	
42	98	
43	98	
44	96	
45	102	
46	104	
47	100	
48	100	
49	89	
50	99	
51	104	
52	101	
53	101	
54	108	
55	100	
56	103	
57	105	
58	96	
59	107	
60	99	
61	103	
62	96	
63	94	
64	101	
65	102	
66	92	
67	100	
68	101	
69	103	
70	105	
71	99	
72	95	
73	97	
74	105	
75	94	
76	97	
77	100	
78	106	
79	101	
80	105	
81	101	
82	100	
83	87	
84	102	
85	100	
86	97	
87	94	
88	89	
89	105	
90	97	
91	108	
92	115	
93	109	
94	107	
95	97	
96	98	
97	99	
98	93	
99	106	
100	101	
101	101	
102	96	
103	103	
104	104	
105	107	
106	99	
107	94	
108	102	
109	96	
110	102	
111	102	
112	100	
113	100	
114	99	
115	100	
116	100	
117	100	
118	99	
119	97	
120	97	
121	99	
122	108	
123	105	
124	93	
125	99	
126	102	
127	97	
128	102	
129	104	
130	102	
131	100	
132	102	
133	100	
134	96	
135	100	
136	98	
137	100	
138	95	
139	101	
140	102	
141	99	
142	99	
143	99	
144	103	
145	103	
146	98	
147	92	
148	99	
149	99	
150	100	
151	99	
152	106	
153	103	
154	99	
155	99	
156	99	
157	98	
158	102	
159	98	
160	103	
161	108	
162	91	
163	94	
164	93	
165	102	
166	102	
167	99	
168	103	
169	96	
170	103	
171	106	
172	98	
173	96	
174	103	
175	106	
176	99	
177	96	
178	100	
179	103	
180	96	
181	103	
182	99	
183	93	
184	102	
185	104	
186	96	
187	100	
188	102	
189	99	
190	99	
191	101	
192	98	
193	98	
194	98	
195	98	
196	100	
197	94	
198	119	
199	107	
200	103	
201	100	
202	97	
203	100	
204	97	
205	102	
206	100	
207	106	
208	107	
209	110	
210	101	
211	99	
212	99	
213	98	
214	100	
215	106	
216	102	
217	108	
218	107	
219	96	
220	102	
221	103	
222	97	
223	97	
224	101	
225	107	
226	113	
227	90	
228	87	
229	92	
230	92	
231	94	
232	98	
233	103	
234	109	
235	103	
236	99	
237	101	
238	102	
239	107	
240	101	
241	103	
242	97	
243	87	
244	102	
245	101	
246	103	
247	96	
248	102	
249	104	
250	113	
251	105	
252	95	
253	92	
254	94	
255	97	
256	102	
257	103	
258	94	
259	91	
260	109	
261	100	
262	99	
263	98	
264	102	
265	105	
266	99	
267	100	
268	102	
269	96	
270	101	
271	100	
272	100	
273	100	
274	103	
275	103	
276	96	
277	92	
278	99	
279	100	
280	108	
281	105	
282	101	
283	100	
284	103	
285	104	
286	96	
287	101	
288	99	
289	98	
290	100	
291	98	
292	98	
293	100	
294	96	
295	100	
296	101	
297	99	
298	98	
299	100	
300	95	
301	98	
302	102	
303	103	
304	99	
305	99	
306	94	
307	93	
308	99	
309	101	
310	102	
311	105	
312	98	
313	99	
314	96	
315	101	
316	105	
317	101	
318	97	
319	98	
320	102	
321	96	
322	99	
323	102	
324	102	
325	100	
326	95	
327	101	
328	102	
329	103	
330	100	
331	97	
332	96	
333	102	
334	100	
335	99	
336	98	
337	104	
338	103	
339	102	
340	103	
341	96	
342	99	
343	98	
344	96	
345	97	
346	102	
347	99	
348	102	
349	98	
350	105	
351	92	
352	96	
353	99	
354	96	
355	109	
356	99	
357	98	
358	99	
359	94	
360	101	
361	106	
362	99	
363	96	
364	97	
365	100	
366	94	
367	96	
368	102	
369	102	
370	99	
371	95	
372	103	
373	98	
374	105	
375	99	
376	103	
377	105	
378	97	
379	105	
380	101	
381	92	
382	98	
383	96	
384	99	
385	98	
386	101	
387	101	
388	101	
389	100	
390	100	
391	104	
392	103	
393	99	
394	102	
395	97	
396	97	
397	102	
398	99	
399	99	
400	103	
401	100	
402	104	
403	111	
404	102	
405	102	
406	97	
407	96	
408	100	
409	100	
410	94	
411	90	
412	101	
413	99	
414	101	
415	104	
416	104	
417	96	
418	100	
419	102	
420	110	
421	98	
422	96	
423	98	
424	97	
425	99	
426	100	
427	99	
428	90	
429	90	
430	100	
431	105	
432	102	
433	99	
434	98	
435	106	
436	103	
437	97	
438	109	
439	104	
440	101	
441	98	
442	104	
443	100	
444	104	
445	101	
446	110	
447	98	
448	94	
449	103	
450	103	
451	104	
452	99	
453	100	
454	103	
455	100	
456	100	
457	104	
458	102	
459	97	
460	99	
461	102	
462	99	
463	107	
464	106	
465	101	
466	99	
467	100	
468	99	
469	100	
470	99	
471	103	
472	103	
473	100	
474	95	
475	101	
476	100	
477	99	
478	102	
479	103	
480	99	
481	95	
482	99	
483	96	
484	99	
485	101	
486	105	
487	106	
488	102	
489	98	
490	98	
491	94	
492	99	
493	103	
494	98	
495	100	
496	104	
497	106	
498	105	
499	108	
500	109	
501	101	
502	103	
503	101	
504	106	
505	109	
506	111	
507	111	
508	115	
509	120	
510	120	
511	131	
512	139	
513	164	
514	204	
515	252	
516	334	
517	461	
518	637	
519	1014	
520	2278	
521	9940	
522	24054	
523	30150	
524	29774	
525	20534	
526	6178	
527	1807	
528	909	
529	568	
530	402	
531	295	
532	231	
533	193	
534	159	
535	131	
536	127	
537	112	
538	111	
539	109	
540	112	
541	112	
542	111	
543	104	
544	96	
545	104	
546	101	
547	99	
548	98	
549	99	
550	102	
551	103	
552	101	
553	100	
554	101	
555	101	
556	102	
557	102	
558	103	
559	106	
560	106	
561	104	
562	101	
563	100	
564	103	
565	98	
566	98	
567	99	
568	100	
569	104	
570	105	
571	101	
572	106	
573	103	
574	102	
575	98	
576	102	
577	99	
578	100	
579	105	
580	97	
581	104	
582	109	
583	99	
584	101	
585	99	
586	102	
587	101	
588	98	
589	97	
590	98	
591	108	
592	106	
593	105	
594	98	
595	101	
596	101	
597	98	
598	103	
599	98	
600	94	
601	97	
602	98	
603	99	
604	101	
605	100	
606	98	
607	96	
608	97	
609	100	
610	99	
611	97	
612	99	
613	102	
614	103	
615	99	
616	100	
617	105	
618	102	
619	101	
620	100	
621	97	
622	94	
623	100	
624	102	
625	95	
626	91	
627	89	
628	97	
629	100	
630	101	
631	100	
632	98	
633	99	
634	100	
635	91	
636	97	
637	102	
638	103	
639	103	
640	99	
641	100	
642	103	
643	99	
644	111	
645	106	
646	103	
647	102	
648	102	
649	100	
650	99	
651	94	
652	95	
653	95	
654	97	
655	95	
656	94	
657	98	
658	99	
659	102	
660	99	
661	103	
662	100	
663	102	
664	98	
665	98	
666	101	
667	100	
668	96	
669	91	
670	88	
671	97	
672	99	
673	97	
674	99	
675	97	
676	98	
677	99	
678	94	
679	93	
680	98	
681	102	
682	99	
683	96	
684	100	
685	105	
686	106	
687	103	
688	101	
689	101	
690	103	
691	104	
692	100	
693	97	
694	101	
695	102	
696	99	
697	97	
698	94	
699	97	
700	103	
701	104	
702	104	
703	102	
704	99	
705	101	
706	103	
707	105	
708	103	
709	99	
710	100	
711	101	
712	99	
713	99	
714	96	
715	97	
716	98	
717	101	
718	102	
719	96	
720	97	
721	101	
722	99	
723	95	
724	94	
725	103	
726	99	
727	96	
728	101	
729	93	
730	102	
731	100	
732	103	
733	100	
734	99	
735	105	
736	98	
737	102	
738	99	
739	100	
740	107	
741	102	
742	106	
743	101	
744	103	
745	93	
746	98	
747	103	
748	102	
749	106	
750	97	
751	99	
752	95	
753	92	
754	103	
755	100	
756	95	
757	98	
758	101	
759	97	
760	98	
761	98	
762	100	
763	98	
764	99	
765	104	
766	99	
767	95	
768	96	
769	99	
770	105	
771	105	
772	100	
773	99	
774	101	
775	102	
776	96	
777	93	
778	98	
779	101	
780	96	
781	100	
782	99	
783	97	
784	94	
785	107	
786	96	
787	97	
788	100	
789	100	
790	95	
791	111	
792	103	
793	101	
794	100	
795	101	
796	104	
797	102	
798	100	
799	96	
800	98	
801	98	
802	99	
803	100	
804	100	
805	99	
806	95	
807	93	
808	98	
809	109	
810	115	
811	97	
812	94	
813	96	
814	104	
815	99	
816	98	
817	98	
818	97	
819	95	
820	93	
821	102	
822	95	
823	98	
824	106	
825	99	
826	93	
827	91	
828	89	
829	92	
830	99	
831	102	
832	101	
833	101	
834	100	
835	100	
836	99	
837	101	
838	97	
839	94	
840	94	
841	102	
842	100	
843	97	
844	98	
845	93	
846	99	
847	94	
848	90	
849	98	
850	95	
851	97	
852	95	
853	96	
854	100	
855	112	
856	109	
857	100	
858	97	
859	93	
860	95	
861	98	
862	98	
863	102	
864	106	
865	104	
866	101	
867	98	
868	93	
869	74	
870	99	
871	101	
872	101	
873	102	
874	97	
875	93	
876	98	
877	100	
878	112	
879	106	
880	97	
881	100	
882	101	
883	100	
884	100	
885	100	
886	105	
887	100	
888	101	
889	100	
890	100	
891	100	
892	99	
893	100	
894	100	
895	96	
896	98	
897	89	
898	95	
899	99	
900	100	
901	98	
902	98	
903	98	
904	98	
905	103	
906	104	
907	89	
908	90	
909	98	
910	99	
911	99	
912	106	
913	95	
914	96	
915	97	
916	100	
917	103	
918	99	
919	97	
920	96	
921	101	
922	100	
923	98	
924	103	
925	104	
926	102	
927	103	
928	105	
929	98	
930	98	
931	100	
932	99	
933	92	
934	98	
935	99	
936	98	
937	90	
938	93	
939	94	
940	99	
941	101	
942	99	
943	93	
944	92	
945	99	
946	97	
947	91	
948	98	
949	97	
950	99	
951	101	
952	99	
953	97	
954	97	
955	100	
956	104	
957	108	
958	103	
959	100	
960	96	
961	94	
962	99	
963	105	
964	106	
965	104	
966	101	
967	102	
968	101	
969	100	
970	103	
971	101	
972	108	
973	88	
974	97	
975	101	
976	103	
977	101	
978	97	
979	101	
980	101	
981	97	
982	101	
983	103	
984	101	
985	102	
986	99	
987	100	
988	98	
989	97	
990	97	
991	97	
992	98	
993	101	
994	98	
995	102	
996	100	
997	100	
998	96	
999	97	
1000	97	
1001	97	
1002	95	
1003	97	
1004	100	
1005	99	
1006	100	
1007	92	
1008	98	
1009	98	
1010	96	
1011	97	
1012	93	
1013	101	
1014	93	
1015	93	
1016	99	
1017	100	
1018	100	
1019	100	
1020	100	
1021	100	
1022	1	
1023	1	
