-0.6,347.25
-0.5976,343.25
-0.5952,346.13
-0.5928,322.13
-0.5904,357
-0.588,345
-0.5856,310.88
-0.5832,353.13
-0.5808,349.38
-0.5784,354.63
-0.576,381.88
-0.5736,368.88
-0.5712,371.63
-0.5688,403
-0.5664,399.25
-0.564,370.38
-0.5616,379.38
-0.5592,357.5
-0.5568,333.88
-0.5544,396.63
-0.552,401.5
-0.5496,383.13
-0.5472,401.5
-0.5448,428.38
-0.5424,415.88
-0.54,409.38
-0.5376,440
-0.5352,431.38
-0.5328,454
-0.5304,438.63
-0.528,448.5
-0.5256,470.63
-0.5232,488.25
-0.5208,481.13
-0.5184,471
-0.516,475.63
-0.5136,457.75
-0.5112,503.25
-0.5088,488.88
-0.5064,483.25
-0.504,496.63
-0.5016,487.38
-0.4992,504.38
-0.4968,509.5
-0.4944,491.75
-0.492,493.5
-0.4896,483.75
-0.4872,537.75
-0.4848,481.13
-0.4824,506.88
-0.48,492.75
-0.4776,480.75
-0.4752,485.38
-0.4728,485.5
-0.4704,516.38
-0.468,548.63
-0.4656,574.88
-0.4632,547.13
-0.4608,526.88
-0.4584,562
-0.456,537.25
-0.4536,551.5
-0.4512,538.25
-0.4488,594
-0.4464,548.38
-0.444,562.25
-0.4416,529.38
-0.4392,594.5
-0.4368,542.88
-0.4344,565.25
-0.432,616.75
-0.4296,643
-0.4272,579
-0.4248,621.88
-0.4224,644.38
-0.42,618.88
-0.4176,671.63
-0.4152,655.38
-0.4128,651.63
-0.4104,709.5
-0.408,723.38
-0.4056,702
-0.4032,693.13
-0.4008,673.88
-0.3984,728.13
-0.396,715.38
-0.3936,726.25
-0.3912,738
-0.3888,780.13
-0.3864,769.25
-0.384,793
-0.3816,822.38
-0.3792,895
-0.3768,874.5
-0.3744,873.5
-0.372,841.88
-0.3696,894
-0.3672,930.25
-0.3648,942.5
-0.3624,956.38
-0.36,989
-0.3576,971.13
-0.3552,994.88
-0.3528,1006.5
-0.3504,998.63
-0.348,1064.6
-0.3456,1065.5
-0.3432,1062.9
-0.3408,1110.6
-0.3384,1056.4
-0.336,1032.9
-0.3336,1087.3
-0.3312,1136.9
-0.3288,1126.9
-0.3264,1137
-0.324,1135.5
-0.3216,1193
-0.3192,1175.3
-0.3168,1118.8
-0.3144,1144
-0.312,1143.9
-0.3096,1214
-0.3072,1195.4
-0.3048,1205.3
-0.3024,1251.9
-0.3,1242.5
-0.2976,1259.9
-0.2952,1262.4
-0.2928,1202.1
-0.2904,1257
-0.288,1263.8
-0.2856,1250
-0.2832,1204
-0.2808,1268.8
-0.2784,1256.3
-0.276,1278.8
-0.2736,1254.3
-0.2712,1252.9
-0.2688,1240.6
-0.2664,1230.3
-0.264,1252.6
-0.2616,1237.6
-0.2592,1226
-0.2568,1205.6
-0.2544,1208.1
-0.252,1233.6
-0.2496,1213
-0.2472,1213.9
-0.2448,1215.5
-0.2424,1226.9
-0.24,1143.8
-0.2376,1184.1
-0.2352,1196.8
-0.2328,1204.6
-0.2304,1214.3
-0.228,1185.6
-0.2256,1210.5
-0.2232,1207.4
-0.2208,1220.6
-0.2184,1197.9
-0.216,1197.1
-0.2136,1138
-0.2112,1124.3
-0.2088,1199.5
-0.2064,1179.6
-0.204,1146.1
-0.2016,1156
-0.1992,1126
-0.1968,1158.5
-0.1944,1194.4
-0.192,1195.8
-0.1896,1202.3
-0.1872,1134.5
-0.1848,1156
-0.1824,1185
-0.18,1175.9
-0.1776,1184.1
-0.1752,1215.8
-0.1728,1208.4
-0.1704,1197.1
-0.168,1171.5
-0.1656,1200
-0.1632,1174.1
-0.1608,1198.6
-0.1584,1196.6
-0.156,1161.4
-0.1536,1157.6
-0.1512,1145.4
-0.1488,1147.6
-0.1464,1160.6
-0.144,1189.9
-0.1416,1167.4
-0.1392,1176.4
-0.1368,1174.9
-0.1344,1202.8
-0.132,1208.5
-0.1296,1183
-0.1272,1152.6
-0.1248,1154.3
-0.1224,1165.5
-0.12,1151.1
-0.1176,1137.6
-0.1152,1126.1
-0.1128,1144.3
-0.1104,1152.1
-0.108,1172.4
-0.1056,1169.8
-0.1032,1127.3
-0.1008,1105.1
-0.0984,1081.5
-0.096,1090
-0.0936,1135.6
-0.0912,1074.5
-0.0888,1080.8
-0.0864,1097.6
-0.084,1087.6
-0.0816,1118
-0.0792,1093
-0.0768,1090
-0.0744,1080
-0.072,1067.8
-0.0696,1082.1
-0.0672,1105.1
-0.0648,1019.9
-0.0624,1018.1
-0.06,1041.1
-0.0576,1035.9
-0.0552,1022
-0.0528,975.63
-0.0504,993.25
-0.048,989.25
-0.0456,996.75
-0.0432,980.63
-0.0408,1045
-0.0384,975.38
-0.036,1030.1
-0.0336,997.5
-0.0312,1021.8
-0.0288,1029.1
-0.0264,987.88
-0.024,963.25
-0.0216,1003
-0.0192,1024.6
-0.0168,951.13
-0.0144,994.13
-0.012,970.75
-0.0096,910.13
-0.0072,921.25
-0.0048,963.88
-0.0024,971.25
0,937.25
0.0024,930.88
0.0048,941.88
0.0072,959
0.0096,976.13
0.012,960
0.0144,970.75
0.0168,957.88
0.0192,969.13
0.0216,966
0.024,970
0.0264,970.75
0.0288,941.38
0.0312,1000.4
0.0336,993.75
0.036,979.25
0.0384,981.63
0.0408,997.88
0.0432,1025.8
0.0456,1074.5
0.048,1054
0.0504,1053.4
0.0528,1061.8
0.0552,1074.9
0.0576,1088.8
0.06,1084
0.0624,1046.3
0.0648,1070.1
0.0672,1101.8
0.0696,1090.1
0.072,1106.4
0.0744,1051.9
0.0768,1109.3
0.0792,1055.8
0.0816,1107
0.084,1088
0.0864,1149
0.0888,1150
0.0912,1167.3
0.0936,1178.6
0.096,1146
0.0984,1154.5
0.1008,1193.4
0.1032,1154.3
0.1056,1201.1
0.108,1180.9
0.1104,1157.9
0.1128,1183.9
0.1152,1199.5
0.1176,1195.5
0.12,1207.9
0.1224,1192.6
0.1248,1204.6
0.1272,1197.5
0.1296,1213.5
0.132,1249.8
0.1344,1183.8
0.1368,1189.9
0.1392,1209.4
0.1416,1255.5
0.144,1223.9
0.1464,1197.6
0.1488,1225.6
0.1512,1191.4
0.1536,1232.9
0.156,1239.6
0.1584,1245.4
0.1608,1272.1
0.1632,1192.4
0.1656,1218.1
0.168,1212.9
0.1704,1172
0.1728,1227.9
0.1752,1240.8
0.1776,1238
0.18,1214.4
0.1824,1225.8
0.1848,1236
0.1872,1238.4
0.1896,1277.6
0.192,1241.6
0.1944,1282.4
0.1968,1233
0.1992,1261.9
0.2016,1252.9
0.204,1243.8
0.2064,1232.1
0.2088,1228.8
0.2112,1228.5
0.2136,1264.8
0.216,1240.8
0.2184,1273.5
0.2208,1271.4
0.2232,1299.8
0.2256,1262.9
0.228,1279.9
0.2304,1277.5
0.2328,1268.1
0.2352,1313.9
0.2376,1301.4
0.24,1306.4
0.2424,1295.5
0.2448,1276.5
0.2472,1332.4
0.2496,1358.8
0.252,1307.4
0.2544,1300.4
0.2568,1288.4
0.2592,1310.5
0.2616,1328.8
0.264,1385.5
0.2664,1350
0.2688,1353.3
0.2712,1361.4
0.2736,1374.4
0.276,1321.4
0.2784,1339.1
0.2808,1334.8
0.2832,1343.1
0.2856,1341.4
0.288,1320.3
0.2904,1335.6
0.2928,1341.1
0.2952,1322.3
0.2976,1362.8
0.3,1374.5
0.3024,1331.8
0.3048,1310.3
0.3072,1271.1
0.3096,1289.9
0.312,1274.5
0.3144,1279.5
0.3168,1292.3
0.3192,1281.4
0.3216,1291
0.324,1303
0.3264,1213.9
0.3288,1225.9
0.3312,1227.9
0.3336,1238
0.336,1188.6
0.3384,1152.6
0.3408,1139
0.3432,1154.8
0.3456,1108.5
0.348,1066.3
0.3504,1048.1
0.3528,1011.4
0.3552,1013.1
0.3576,1011.6
0.36,974.5
0.3624,980.88
0.3648,1002
0.3672,961.38
0.3696,977.5
0.372,937.25
0.3744,946.88
0.3768,887.13
0.3792,875.88
0.3816,920.75
0.384,830.13
0.3864,789.38
0.3888,874.13
0.3912,837.63
0.3936,808.63
0.396,765.38
0.3984,729.88
0.4008,780.38
0.4032,759.25
0.4056,737.88
0.408,686.63
0.4104,710
0.4128,702.88
0.4152,690
0.4176,747
0.42,693.13
0.4224,716
0.4248,686.25
0.4272,712.25
0.4296,653.75
0.432,641.25
0.4344,598.13
0.4368,608.25
0.4392,624.88
0.4416,656.63
0.444,597.25
0.4464,591.75
0.4488,590.38
0.4512,572.25
0.4536,549.88
0.456,590.75
0.4584,589.88
0.4608,558.13
0.4632,592.5
0.4656,548.63
0.468,542.63
0.4704,538.5
0.4728,559.63
0.4752,551.5
0.4776,565.88
0.48,572.88
0.4824,583
0.4848,524
0.4872,534.75
0.4896,564.88
0.492,556.25
0.4944,510.88
0.4968,529.5
0.4992,497.38
0.5016,432.13
0.504,501.38
0.5064,511
0.5088,472
0.5112,528.75
0.5136,499.88
0.516,527.13
0.5184,496.5
0.5208,469.5
0.5232,425.88
0.5256,405.88
0.528,422.63
0.5304,403.5
0.5328,445
0.5352,480.63
0.5376,431.38
0.54,398.75
0.5424,380.38
0.5448,386.13
0.5472,360.75
0.5496,332
0.552,381.38
0.5544,355.75
0.5568,292.25
0.5592,272.75
0.5616,311.88
0.564,271.88
0.5664,237.88
0.5688,165.75
0.5712,155.5
0.5736,157.63
0.576,164.75
0.5784,145.38
0.5808,92.375
0.5832,111.88
0.5856,97.25
0.588,154.38
0.5904,141.5
0.5928,100.5
0.5952,67.375
0.5976,156
0.6,162.25
0.6024,226.88
0.6048,183.25
0.6072,272.13
0.6096,242
0.612,227.38
0.6144,281.13
0.6168,266.25
0.6192,278.5
0.6216,261
0.624,264.25
0.6264,260.5
0.6288,201.75
0.6312,225.75
0.6336,263.63
0.636,262.13
0.6384,249.75
0.6408,285.25
0.6432,251.5
0.6456,254.13
0.648,207
0.6504,50.25
0.6528,0
0.6552,0
0.6576,0
0.66,0
0.6624,0
0.6648,0
0.6672,0
0.6696,0
0.672,0
0.6744,0
0.6768,0
0.6792,0
0.6816,0
0.684,0
0.6864,0
0.6888,0
0.6912,0
0.6936,0
0.696,0
0.6984,0
0.7008,0
0.7032,0
0.7056,0
0.708,0
0.7104,0
0.7128,0
0.7152,0
0.7176,0
0.72,0
0.7224,0
0.7248,0
0.7272,0
0.7296,0
0.732,0
0.7344,0
0.7368,0
0.7392,0
0.7416,0
0.744,0
0.7464,0
0.7488,0
0.7512,0
0.7536,0
0.756,0
0.7584,0
0.7608,0
0.7632,0
0.7656,0
0.768,0
0.7704,0
0.7728,0
0.7752,0
0.7776,0
0.78,0
0.7824,0
0.7848,0
0.7872,0
0.7896,0
0.792,0
0.7944,0
0.7968,0
0.7992,0
0.8016,0
0.804,0
0.8064,0
0.8088,0
0.8112,0
0.8136,0
0.816,0
0.8184,0
0.8208,0
0.8232,0
0.8256,0
0.828,0
0.8304,0
0.8328,0
0.8352,0
0.8376,0
0.84,0
0.8424,0
0.8448,0
0.8472,0
0.8496,0
0.852,0
0.8544,0
0.8568,0
0.8592,0
0.8616,0
0.864,0
0.8664,0
0.8688,0
0.8712,0
0.8736,0
0.876,0
0.8784,0
0.8808,0
0.8832,0
0.8856,0
0.888,0
0.8904,0
0.8928,0
0.8952,0
0.8976,0
0.9,0
0.9024,0
0.9048,0
0.9072,0
0.9096,0
0.912,0
0.9144,0
0.9168,0
0.9192,0
0.9216,0
0.924,0
0.9264,0
0.9288,0
0.9312,0
0.9336,0
0.936,0
0.9384,0
0.9408,0
0.9432,0
0.9456,0
0.948,0
0.9504,0
0.9528,0
0.9552,0
0.9576,0
0.96,0
0.9624,0
0.9648,0
0.9672,0
0.9696,0
0.972,0
0.9744,0
0.9768,0
0.9792,0
0.9816,0
0.984,0
0.9864,0
0.9888,0
0.9912,0
0.9936,0
0.996,0
0.9984,0
